q_Ainv,d_A,intensity
0.200000,31.415927,133112.727207
0.210000,29.919930,110643.037496
0.220000,28.559933,90853.613292
0.230000,27.318197,73507.578446
0.240000,26.179939,58524.094312
0.250000,25.132741,45862.244533
0.260000,24.166097,35441.182757
0.270000,23.271057,27101.282149
0.280000,22.439948,20602.095571
0.290000,21.666156,15646.783777
0.300000,20.943951,11919.899040
0.310000,20.268340,9125.871570
0.320000,19.634954,7018.487046
0.330000,19.039955,5415.968211
0.340000,18.479957,4200.813307
0.350000,17.951958,3307.305547
0.360000,17.453293,2701.942942
0.370000,16.981582,2362.716541
0.380000,16.534698,2262.350652
0.390000,16.110732,2358.765688
0.400000,15.707963,2593.733223
0.410000,15.324842,2898.557814
0.420000,14.959965,3204.101694
0.430000,14.612059,3451.815672
0.440000,14.279967,3602.669011
0.450000,13.962634,3641.798742
0.460000,13.659098,3578.011160
0.470000,13.368479,3438.609987
0.480000,13.089969,3261.085076
0.490000,12.822827,3083.767186
0.500000,12.566371,2937.570539
0.510000,12.319971,2840.472205
0.520000,12.083049,2795.584073
0.530000,11.855067,2792.778537
0.540000,11.635528,2813.047762
0.550000,11.423973,2834.271098
0.560000,11.219974,2836.916550
0.570000,11.023132,2808.400844
0.580000,10.833078,2745.292378
0.590000,10.649467,2653.127751
0.600000,10.471976,2544.178964
0.610000,10.300304,2433.930160
0.620000,10.134170,2337.222738
0.630000,9.973310,2264.987513
0.640000,9.817477,2222.240164
0.650000,9.666439,2207.650022
0.660000,9.519978,2214.599257
0.670000,9.377889,2233.321183
0.680000,9.239978,2253.508907
0.690000,9.106066,2266.747967
0.700000,8.975979,2268.239022
0.710000,8.849557,2257.496711
0.720000,8.726646,2237.976931
0.730000,8.607103,2215.832242
0.740000,8.490791,2198.170233
0.750000,8.377580,2191.261122
0.760000,8.267349,2199.103355
0.770000,8.159981,2222.629583
0.780000,8.055366,2259.657775
0.790000,7.953399,2305.509157
0.800000,7.853982,2354.068912
0.810000,7.757019,2398.987600
0.820000,7.662421,2434.723620
0.830000,7.570103,2457.202638
0.840000,7.479983,2463.994941
0.850000,7.391983,2454.052154
0.860000,7.306029,2427.164586
0.870000,7.222052,2383.370049
0.880000,7.139983,2322.548050
0.890000,7.059759,2244.370107
0.900000,6.981317,2148.664599
0.910000,6.904599,2036.122142
0.920000,6.829549,1909.149601
0.930000,6.756113,1772.608959
0.940000,6.684240,1634.172167
0.950000,6.613879,1504.089523
0.960000,6.544985,1394.294284
0.970000,6.477511,1316.922191
0.980000,6.411414,1282.475078
0.990000,6.346652,1297.965891
1.000000,6.283185,1365.420468
1.010000,6.220976,1481.066828
1.020000,6.159986,1635.422121
1.030000,6.100180,1814.315272
1.040000,6.041524,2000.696781
1.050000,5.983986,2176.927172
1.060000,5.927533,2327.138016
1.070000,5.872136,2439.246105
1.080000,5.817764,2506.275288
1.090000,5.764390,2526.784918
1.100000,5.711987,2504.386416
1.110000,5.660527,2446.509418
1.120000,5.609987,2362.717054
1.130000,5.560341,2262.937164
1.140000,5.511566,2155.960587
1.150000,5.463639,2048.466515
1.160000,5.416539,1944.692682
1.170000,5.370244,1846.710390
1.180000,5.324733,1755.128806
1.190000,5.279988,1669.970477
1.200000,5.235988,1591.447480
1.210000,5.192715,1520.424241
1.220000,5.150152,1458.460849
1.230000,5.108281,1407.459777
1.240000,5.067085,1369.054812
1.250000,5.026548,1343.953719
1.260000,4.986655,1331.457597
1.270000,4.947390,1329.328072
1.280000,4.908739,1334.073313
1.290000,4.870686,1341.602578
1.300000,4.833219,1348.089667
1.310000,4.796325,1350.818132
1.320000,4.759989,1348.774528
1.330000,4.724199,1342.813557
1.340000,4.688944,1335.327078
1.350000,4.654211,1329.480221
1.360000,4.619989,1328.198135
1.370000,4.586267,1333.164110
1.380000,4.553033,1344.101711
1.390000,4.520277,1358.554637
1.400000,4.487990,1372.260214
1.410000,4.456160,1380.063768
1.420000,4.424778,1377.178080
1.430000,4.393836,1360.491300
1.440000,4.363323,1329.595393
1.450000,4.333231,1287.256311
1.460000,4.303552,1239.167957
1.470000,4.274276,1192.997979
1.480000,4.245395,1156.905699
1.490000,4.216903,1137.849371
1.500000,4.188790,1140.066801
1.510000,4.161050,1164.091176
1.520000,4.133675,1206.554302
1.530000,4.106657,1260.854978
1.540000,4.079990,1318.569633
1.550000,4.053668,1371.301868
1.560000,4.027683,1412.550706
1.570000,4.002029,1439.154010
1.580000,3.976700,1451.943568
1.590000,3.951689,1455.417717
1.600000,3.926991,1456.461370
1.610000,3.902600,1462.373002
1.620000,3.878509,1478.641463
1.630000,3.854715,1507.008152
1.640000,3.831211,1544.326254
1.650000,3.807991,1582.586883
1.660000,3.785051,1610.246462
1.670000,3.762386,1614.706468
1.680000,3.739991,1585.524120
1.690000,3.717861,1517.729725
1.700000,3.695991,1414.540434
1.710000,3.674377,1288.815950
1.720000,3.653015,1162.796110
1.730000,3.631899,1065.961409
1.740000,3.611026,1031.210607
1.750000,3.590392,1089.887136
1.760000,3.569992,1266.441288
1.770000,3.549822,1573.635247
1.780000,3.529879,2009.155063
1.790000,3.510159,2554.290435
1.800000,3.490659,3175.013610
1.810000,3.471373,3825.391011
1.820000,3.452300,4452.867445
1.830000,3.433435,5004.644282
1.840000,3.414775,5434.187629
1.850000,3.396316,5706.882563
1.860000,3.378057,5803.996983
1.870000,3.359992,5724.404433
1.880000,3.342120,5483.886078
1.890000,3.324437,5112.220387
1.900000,3.306940,4648.606849
1.910000,3.289626,4136.200871
1.920000,3.272492,3616.626320
1.930000,3.255536,3125.272488
1.940000,3.238755,2687.993349
1.950000,3.222146,2319.550107
1.960000,3.205707,2023.827805
1.970000,3.189434,1795.569291
1.980000,3.173326,1623.153278
1.990000,3.157380,1491.828748
2.000000,3.141593,1386.816015
2.010000,3.125963,1295.784457
2.020000,3.110488,1210.390228
2.030000,3.095165,1126.765305
2.040000,3.079993,1045.050835
2.050000,3.064968,968.227022
2.060000,3.050090,900.584334
2.070000,3.035355,846.197308
2.080000,3.020762,807.708420
2.090000,3.006309,785.624026
2.100000,2.991993,778.193474
2.110000,2.977813,781.814765
2.120000,2.963767,791.810099
2.130000,2.949852,803.359095
2.140000,2.936068,812.372181
2.150000,2.922412,816.126948
2.160000,2.908882,813.562481
2.170000,2.895477,805.212142
2.180000,2.882195,792.834493
2.190000,2.869034,778.858933
2.200000,2.855993,765.787351
2.210000,2.843070,755.684140
2.220000,2.830264,749.849802
2.230000,2.817572,748.719618
2.240000,2.804993,751.972309
2.250000,2.792527,758.787375
2.260000,2.780170,768.163402
2.270000,2.767923,779.206999
2.280000,2.755783,791.321369
2.290000,2.743749,804.257922
2.300000,2.731820,818.034264
2.310000,2.719994,832.757059
2.320000,2.708270,848.410762
2.330000,2.696646,864.678555
2.340000,2.685122,880.850142
2.350000,2.673696,895.846397
2.360000,2.662367,908.360104
2.370000,2.651133,917.082864
2.380000,2.639994,920.967546
2.390000,2.628948,919.467643
2.400000,2.617994,912.700765
2.410000,2.607131,901.500963
2.420000,2.596358,887.349115
2.430000,2.585673,872.196188
2.440000,2.575076,858.215181
2.450000,2.564565,847.529648
2.460000,2.554140,841.967860
2.470000,2.543800,842.882463
2.480000,2.533542,851.058683
2.490000,2.523368,866.714013
2.500000,2.513274,889.573493
